ALV-5000/E-WIN Data
Date :	"15.03.18"
Time :	"11:38:48"
Samplename : 	""
Temperature [K] :	     298.16000
Viscosity [cp]  :	       0.89454
Refractive Index:	       1.33000
Wavelength [nm] :	     532.00000
Angle [°]       :	      60.00000
Duration [s]    :	        30
Runs            :	         1
Mode            :	"SINGLE AUTO CH0 "
MeanCR0 [kHz]   :	      59.56854
MeanCR1 [kHz]   :	       0.00000

"Correlation"
  2.00000E-004	  5.78011E-001
  4.00000E-004	  5.77723E-001
  6.00000E-004	  5.48399E-001
  8.00000E-004	  5.38080E-001
  1.00000E-003	  5.47295E-001
  1.20000E-003	  5.52046E-001
  1.40000E-003	  5.40240E-001
  1.60000E-003	  5.41008E-001
  1.80000E-003	  5.29346E-001
  2.00000E-003	  5.45135E-001
  2.20000E-003	  5.45519E-001
  2.40000E-003	  5.50607E-001
  2.60000E-003	  5.39376E-001
  2.80000E-003	  5.48207E-001
  3.00000E-003	  5.36737E-001
  3.20000E-003	  5.35945E-001
  3.60000E-003	  5.34817E-001
  4.00000E-003	  5.35609E-001
  4.40000E-003	  5.38248E-001
  4.80000E-003	  5.27234E-001
  5.20000E-003	  5.35921E-001
  5.60000E-003	  5.23347E-001
  6.00000E-003	  5.25266E-001
  6.40000E-003	  5.28585E-001
  7.20000E-003	  5.23846E-001
  8.00000E-003	  5.26450E-001
  8.80000E-003	  5.18904E-001
  9.60000E-003	  5.24315E-001
  1.04000E-002	  5.11321E-001
  1.12000E-002	  5.13853E-001
  1.20000E-002	  5.08705E-001
  1.28000E-002	  5.09271E-001
  1.44000E-002	  5.05767E-001
  1.60000E-002	  4.97543E-001
  1.76000E-002	  4.86666E-001
  1.92000E-002	  4.85670E-001
  2.08000E-002	  4.81711E-001
  2.24000E-002	  4.76984E-001
  2.40000E-002	  4.73906E-001
  2.56000E-002	  4.69612E-001
  2.88000E-002	  4.61405E-001
  3.20000E-002	  4.52077E-001
  3.52000E-002	  4.43357E-001
  3.84000E-002	  4.36002E-001
  4.16000E-002	  4.23425E-001
  4.48000E-002	  4.18474E-001
  4.80000E-002	  4.08779E-001
  5.12000E-002	  3.99407E-001
  5.76000E-002	  3.84033E-001
  6.40000E-002	  3.70866E-001
  7.04000E-002	  3.56245E-001
  7.68000E-002	  3.38734E-001
  8.32000E-002	  3.29505E-001
  8.96000E-002	  3.15369E-001
  9.60000E-002	  3.04216E-001
  1.02400E-001	  2.92293E-001
  1.15200E-001	  2.68892E-001
  1.28000E-001	  2.48674E-001
  1.40800E-001	  2.30397E-001
  1.53600E-001	  2.12960E-001
  1.66400E-001	  1.96583E-001
  1.79200E-001	  1.84027E-001
  1.92000E-001	  1.68094E-001
  2.04800E-001	  1.56954E-001
  2.30400E-001	  1.33080E-001
  2.56000E-001	  1.13340E-001
  2.81600E-001	  9.73280E-002
  3.07200E-001	  8.25367E-002
  3.32800E-001	  6.94712E-002
  3.58400E-001	  6.10668E-002
  3.84000E-001	  5.22906E-002
  4.09600E-001	  4.51456E-002
  4.60800E-001	  3.33856E-002
  5.12000E-001	  2.52918E-002
  5.63200E-001	  1.90447E-002
  6.14400E-001	  1.40877E-002
  6.65600E-001	  1.13251E-002
  7.16800E-001	  1.02455E-002
  7.68000E-001	  7.62278E-003
  8.19200E-001	  6.36110E-003
  9.21600E-001	  3.19443E-003
  1.02400E+000	  1.37928E-003
  1.12640E+000	  8.10186E-004
  1.22880E+000	  8.28087E-004
  1.33120E+000	  2.58092E-004
  1.43360E+000	 -1.00373E-003
  1.53600E+000	 -9.48958E-004
  1.63840E+000	 -7.04506E-004
  1.84320E+000	  8.37166E-004
  2.04800E+000	  6.95145E-004
  2.25280E+000	 -4.42890E-004
  2.45760E+000	 -1.17205E-003
  2.66240E+000	 -1.00431E-003
  2.86720E+000	 -3.50758E-004
  3.07200E+000	  1.01816E-003
  3.22560E+000	  2.73993E-003
  3.63520E+000	  1.42774E-003
  4.04480E+000	 -6.82385E-004
  4.45440E+000	 -1.56500E-003
  4.86400E+000	  1.71230E-004
  5.27360E+000	  1.29762E-003
  5.68320E+000	 -8.13272E-004
  6.09280E+000	 -1.59927E-003
  6.50240E+000	 -2.64101E-004
  7.32160E+000	 -2.02070E-003
  8.14080E+000	 -4.74259E-004
  8.96000E+000	  1.33897E-003
  9.77920E+000	  1.08955E-003
  1.05984E+001	 -9.41742E-005
  1.14176E+001	  8.65536E-004
  1.22368E+001	 -7.62919E-004
  1.30560E+001	  5.26318E-004
  1.46944E+001	 -3.51857E-004
  1.63328E+001	 -1.02751E-003
  1.79712E+001	  4.75228E-004
  1.96096E+001	 -4.33828E-004
  2.12480E+001	  7.36439E-004
  2.28864E+001	  1.77662E-004
  2.45248E+001	 -1.34729E-004
  2.61632E+001	 -4.82804E-004
  2.94400E+001	  6.01718E-004
  3.27168E+001	 -1.74948E-004
  3.59936E+001	  5.45466E-004
  3.92704E+001	  9.87573E-005
  4.25472E+001	  9.69063E-004
  4.58240E+001	  7.29909E-004
  4.91008E+001	  2.04971E-004
  5.23776E+001	  9.65722E-004
  5.89312E+001	  9.56310E-005
  6.54848E+001	  8.49694E-004
  7.20384E+001	  1.79447E-004
  7.85920E+001	 -3.82738E-004
  8.51456E+001	  1.51680E-004
  9.16992E+001	  9.20247E-004
  9.82528E+001	  4.31410E-004
  1.04806E+002	 -3.61776E-004
  1.17914E+002	  1.14591E-004
  1.31021E+002	  3.76465E-004
  1.44128E+002	  1.53767E-004
  1.57235E+002	 -2.02411E-004
  1.70342E+002	 -4.40246E-006
  1.83450E+002	  3.63390E-004
  1.96557E+002	 -3.02600E-004
  2.09664E+002	  1.18516E-005
  2.35878E+002	  9.37004E-005
  2.62093E+002	  4.63209E-004
  2.88307E+002	  3.95856E-004
  3.14522E+002	 -1.58009E-005
  3.40736E+002	  2.50453E-005
  3.66950E+002	  2.41484E-004
  3.93165E+002	 -2.93242E-004
  4.19379E+002	  1.47155E-004
  4.71808E+002	 -1.19083E-004
  5.24237E+002	 -7.33701E-005
  5.76666E+002	 -2.09916E-004
  6.29094E+002	  8.71764E-005
  6.81523E+002	  4.04352E-005
  7.33952E+002	  2.37800E-004
  7.86381E+002	  4.20002E-004
  8.38810E+002	  2.56315E-004
  9.43667E+002	  8.48698E-005
  1.04852E+003	  2.86117E-005
  1.15338E+003	  3.09143E-004
  1.25824E+003	  1.58960E-004
  1.36310E+003	 -1.59759E-004
  1.46796E+003	  1.00331E-005
  1.57281E+003	  2.88323E-005
  1.67767E+003	 -9.87387E-005
  1.88739E+003	 -1.28801E-005
  2.09710E+003	  2.23334E-004
  2.30682E+003	  4.83203E-005
  2.51653E+003	 -2.19535E-005
  2.72625E+003	  2.32727E-005
  2.93596E+003	  3.91329E-005
  3.14568E+003	  5.71895E-005
  3.35539E+003	 -6.24317E-005
  3.77482E+003	 -1.27650E-004
  4.19425E+003	  1.93611E-004
  4.61368E+003	 -1.59362E-004
  5.03311E+003	  7.89053E-005
  5.45254E+003	 -1.05606E-004
  5.87197E+003	 -1.61730E-004
  6.29140E+003	  5.33163E-005

"Count Rate"
       0.11719	      63.92899
       0.23438	      60.06201
       0.35156	      59.89128
       0.46875	      55.78528
       0.58594	      59.23398
       0.70313	      57.62060
       0.82031	      55.03408
       0.93750	      58.20108
       1.05469	      59.10593
       1.17188	      61.24857
       1.28906	      55.93040
       1.40625	      52.43901
       1.52344	      59.95103
       1.64063	      57.77426
       1.75781	      56.96330
       1.87500	      59.00349
       1.99219	      63.41681
       2.10938	      54.96579
       2.22656	      57.53524
       2.34375	      60.89857
       2.46094	      61.08637
       2.57813	      61.12906
       2.69531	      58.48278
       2.81250	      58.49985
       2.92969	      58.68765
       3.04688	      64.08264
       3.16406	      62.86194
       3.28125	      56.35722
       3.39844	      59.21690
       3.51563	      52.82315
       3.63281	      58.90960
       3.75000	      54.41092
       3.86719	      58.49985
       3.98438	      58.51692
       4.10156	      56.54502
       4.21875	      57.97059
       4.33594	      57.91084
       4.45313	      62.02538
       4.57031	      58.76448
       4.68750	      58.02181
       4.80469	      57.63767
       4.92188	      56.49380
       5.03906	      52.94266
       5.15625	      59.09740
       5.27344	      60.02786
       5.39063	      62.59731
       5.50781	      62.84487
       5.62500	      57.92791
       5.74219	      60.32664
       5.85938	      59.08032
       5.97656	      58.14132
       6.09375	      56.44258
       6.21094	      58.64497
       6.32813	      60.15591
       6.44531	      62.64853
       6.56250	      58.91813
       6.67969	      59.72909
       6.79688	      60.31810
       6.91406	      59.02911
       7.03125	      60.46322
       7.14844	      60.07908
       7.26563	      61.55587
       7.38281	      60.66809
       7.50000	      61.90587
       7.61719	      61.31686
       7.73438	      56.92915
       7.85156	      58.40595
       7.96875	      59.32788
       8.08594	      57.58646
       8.20313	      57.79987
       8.32031	      59.21690
       8.43750	      58.09010
       8.55469	      60.04493
       8.67188	      58.30351
       8.78906	      57.99620
       8.90625	      60.96687
       9.02344	      59.29373
       9.14063	      57.79133
       9.25781	      63.26315
       9.37500	      56.32307
       9.49219	      60.93272
       9.60938	      63.92899
       9.72656	      60.97540
       9.84375	      55.52065
       9.96094	      58.53399
      10.07813	      59.55836
      10.19531	      60.84735
      10.31250	      64.41557
      10.42969	      59.60104
      10.54688	      59.27666
      10.66406	      64.21069
      10.78125	      61.80343
      10.89844	      62.23025
      11.01563	      58.71326
      11.13281	      61.46198
      11.25000	      60.51443
      11.36719	      60.94125
      11.48438	      60.39493
      11.60156	      61.53880
      11.71875	      60.70224
      11.83594	      62.04245
      11.95313	      59.91689
      12.07031	      57.07427
      12.18750	      56.32307
      12.30469	      58.86691
      12.42188	      58.45717
      12.53906	      59.76323
      12.65625	      60.21566
      12.77344	      56.45111
      12.89063	      56.79257
      13.00781	      58.23522
      13.12500	      57.97913
      13.24219	      58.38887
      13.35938	      63.96313
      13.47656	      57.66328
      13.59375	      60.13884
      13.71094	      59.93396
      13.82813	      59.77177
      13.94531	      56.98037
      14.06250	      63.96313
      14.17969	      61.17174
      14.29688	      55.57187
      14.41406	      60.25834
      14.53125	      57.17671
      14.64844	      61.47905
      14.76563	      64.54361
      14.88281	      62.23878
      15.00000	      59.62665
      15.11719	      61.35954
      15.23438	      58.38887
      15.35156	      62.99852
      15.46875	      63.41681
      15.58594	      59.68641
      15.70313	      58.70472
      15.82031	      59.86567
      15.93750	      64.36435
      16.05469	      59.07178
      16.17188	      57.35597
      16.28906	      62.85340
      16.40625	      61.70953
      16.52344	      62.07660
      16.64063	      59.32788
      16.75781	      58.55107
      16.87500	      61.07784
      16.99219	      59.83152
      17.10938	      60.20713
      17.22656	      66.76307
      17.34375	      61.80343
      17.46094	      57.79987
      17.57813	      63.99728
      17.69531	      55.95601
      17.81250	      58.39741
      17.92969	      56.05844
      18.04688	      64.86800
      18.16406	      56.22917
      18.28125	      60.82175
      18.39844	      60.93272
      18.51563	      56.69014
      18.63281	      56.10112
      18.75000	      58.54253
      18.86719	      60.84735
      18.98438	      63.60461
      19.10156	      68.15450
      19.21875	      56.58770
      19.33594	      59.26812
      19.45313	      58.67911
      19.57031	      63.98021
      19.68750	      57.91084
      19.80469	      63.28022
      19.92188	      60.66809
      20.03906	      60.77053
      20.15625	      58.91813
      20.27344	      59.83152
      20.39063	      60.12176
      20.50781	      57.99620
      20.62500	      55.69138
      20.74219	      59.11447
      20.85938	      57.00598
      20.97656	      56.35722
      21.09375	      58.13279
      21.21094	      61.30832
      21.32813	      58.14132
      21.44531	      58.07303
      21.56250	      58.72179
      21.67969	      54.83774
      21.79688	      61.98269
      21.91406	      58.76448
      22.03125	      57.12549
      22.14844	      59.70348
      22.26563	      65.33749
      22.38281	      57.40719
      22.50000	      59.21690
      22.61719	      58.01328
      22.73438	      56.65599
      22.85156	      59.62665
      22.96875	      56.20356
      23.08594	      57.60353
      23.20313	      58.26083
      23.32031	      56.24624
      23.43750	      62.25586
      23.55469	      57.58646
      23.67188	      57.71450
      23.78906	      55.52065
      23.90625	      58.93520
      24.02344	      59.89981
      24.14063	      64.24483
      24.25781	      60.01079
      24.37500	      62.41805
      24.49219	      58.87545
      24.60938	      55.34992
      24.72656	      57.34744
      24.84375	      59.82299
      24.96094	      58.65350
      25.07813	      58.90106
      25.19531	      61.12906
      25.31250	      62.93877
      25.42969	      67.44598
      25.54688	      60.61687
      25.66406	      61.50466
      25.78125	      56.04137
      25.89844	      57.56938
      26.01563	      55.96454
      26.13281	      62.11074
      26.25000	      63.24608
      26.36719	      59.50714
      26.48438	      63.80948
      26.60156	      64.86800
      26.71875	      58.68765
      26.83594	      58.48278
      26.95313	      62.77658
      27.07031	      62.04245
      27.18750	      59.21690
      27.30469	      64.33020
      27.42188	      59.37910
      27.53906	      63.45095
      27.65625	      58.48278
      27.77344	      59.72909
      27.89063	      58.44009
      28.00781	      60.69370
      28.12500	      55.93040
      28.24219	      65.96918
      28.35938	      55.68284
      28.47656	      61.63270
      28.59375	      58.41449
      28.71094	      58.74741
      28.82813	      55.37553
      28.94531	      57.99620
      29.06250	      60.82175
      29.17969	      62.93877
      29.29688	      60.71077
      29.41406	      58.67911
      29.53125	      60.34371
      29.64844	      61.76075
      29.76563	      55.49504
      29.88281	      56.19503
