ALV-5000/E-WIN Data
Date :	"11.09.17"
Time :	"14:12:34"
Samplename : 	""
Temperature [K] :	     298.16000
Viscosity [cp]  :	       0.89454
Refractive Index:	       1.33000
Wavelength [nm] :	     532.00000
Angle [°]       :	      80.00000
Duration [s]    :	        30
Runs            :	         1
Mode            :	"SINGLE AUTO CH0"
MeanCR0 [kHz]   :	      41.90789
MeanCR1 [kHz]   :	       0.00000

"Correlation"
  2.00000E-004	  5.41666E-001
  4.00000E-004	  4.86298E-001
  6.00000E-004	  4.72626E-001
  8.00000E-004	  4.65935E-001
  1.00000E-003	  4.81741E-001
  1.20000E-003	  4.68941E-001
  1.40000E-003	  5.03849E-001
  1.60000E-003	  4.62348E-001
  1.80000E-003	  4.63220E-001
  2.00000E-003	  4.80674E-001
  2.20000E-003	  4.74371E-001
  2.40000E-003	  4.75244E-001
  2.60000E-003	  4.51196E-001
  2.80000E-003	  4.79123E-001
  3.00000E-003	  4.96771E-001
  3.20000E-003	  4.78536E-001
  3.60000E-003	  4.55604E-001
  4.00000E-003	  4.52355E-001
  4.40000E-003	  4.63458E-001
  4.80000E-003	  4.47168E-001
  5.20000E-003	  4.55943E-001
  5.60000E-003	  4.54343E-001
  6.00000E-003	  4.73106E-001
  6.40000E-003	  4.56144E-001
  7.20000E-003	  4.56241E-001
  8.00000E-003	  4.56119E-001
  8.80000E-003	  4.52701E-001
  9.60000E-003	  4.51051E-001
  1.04000E-002	  4.43439E-001
  1.12000E-002	  4.44869E-001
  1.20000E-002	  4.31731E-001
  1.28000E-002	  4.36009E-001
  1.44000E-002	  4.30761E-001
  1.60000E-002	  4.34506E-001
  1.76000E-002	  4.27488E-001
  1.92000E-002	  4.14519E-001
  2.08000E-002	  4.12810E-001
  2.24000E-002	  4.18325E-001
  2.40000E-002	  4.09913E-001
  2.56000E-002	  4.07746E-001
  2.88000E-002	  4.04414E-001
  3.20000E-002	  3.94723E-001
  3.52000E-002	  3.79002E-001
  3.84000E-002	  3.77209E-001
  4.16000E-002	  3.66373E-001
  4.48000E-002	  3.63106E-001
  4.80000E-002	  3.60833E-001
  5.12000E-002	  3.49673E-001
  5.76000E-002	  3.36024E-001
  6.40000E-002	  3.22170E-001
  7.04000E-002	  3.08788E-001
  7.68000E-002	  2.95496E-001
  8.32000E-002	  2.84881E-001
  8.96000E-002	  2.74266E-001
  9.60000E-002	  2.66163E-001
  1.02400E-001	  2.55643E-001
  1.15200E-001	  2.36776E-001
  1.28000E-001	  2.18024E-001
  1.40800E-001	  2.00791E-001
  1.53600E-001	  1.85475E-001
  1.66400E-001	  1.71827E-001
  1.79200E-001	  1.61129E-001
  1.92000E-001	  1.49432E-001
  2.04800E-001	  1.35233E-001
  2.30400E-001	  1.16919E-001
  2.56000E-001	  1.00860E-001
  2.81600E-001	  8.62490E-002
  3.07200E-001	  7.56382E-002
  3.32800E-001	  6.52592E-002
  3.58400E-001	  5.42900E-002
  3.84000E-001	  4.77230E-002
  4.09600E-001	  4.14211E-002
  4.60800E-001	  2.95567E-002
  5.12000E-001	  2.23737E-002
  5.63200E-001	  1.58178E-002
  6.14400E-001	  1.34102E-002
  6.65600E-001	  1.03908E-002
  7.16800E-001	  6.87645E-003
  7.68000E-001	  4.52428E-003
  8.19200E-001	  2.08366E-003
  9.21600E-001	  2.57020E-003
  1.02400E+000	  1.43480E-003
  1.12640E+000	  2.52113E-003
  1.22880E+000	  3.79099E-003
  1.33120E+000	  4.24922E-003
  1.43360E+000	  4.87287E-003
  1.53600E+000	  2.76876E-003
  1.63840E+000	  2.32690E-003
  1.84320E+000	  1.28604E-003
  2.04800E+000	  1.64736E-003
  2.25280E+000	  1.92583E-003
  2.45760E+000	  9.08071E-004
  2.66240E+000	 -1.44864E-003
  2.86720E+000	 -1.63402E-003
  3.07200E+000	  4.79970E-004
  3.22560E+000	  2.53418E-004
  3.63520E+000	 -1.44237E-003
  4.04480E+000	 -5.58067E-005
  4.45440E+000	 -6.52182E-004
  4.86400E+000	  1.34965E-003
  5.27360E+000	  2.03428E-003
  5.68320E+000	 -1.43060E-004
  6.09280E+000	 -3.45798E-004
  6.50240E+000	 -1.11338E-004
  7.32160E+000	 -7.73444E-004
  8.14080E+000	 -1.18734E-003
  8.96000E+000	 -8.10295E-004
  9.77920E+000	 -6.01411E-005
  1.05984E+001	 -3.62464E-004
  1.14176E+001	 -2.78853E-004
  1.22368E+001	  7.66965E-005
  1.30560E+001	 -7.25320E-005
  1.46944E+001	  1.25695E-003
  1.63328E+001	 -3.44361E-004
  1.79712E+001	  4.76154E-004
  1.96096E+001	 -1.25471E-003
  2.12480E+001	  3.62446E-004
  2.28864E+001	 -7.20122E-004
  2.45248E+001	  1.30005E-003
  2.61632E+001	  9.40722E-004
  2.94400E+001	  4.14587E-004
  3.27168E+001	 -5.01700E-004
  3.59936E+001	  4.54808E-004
  3.92704E+001	  2.18647E-004
  4.25472E+001	  7.05443E-004
  4.58240E+001	  9.05953E-004
  4.91008E+001	  1.27173E-003
  5.23776E+001	  1.05822E-004
  5.89312E+001	 -7.52179E-004
  6.54848E+001	  1.16862E-004
  7.20384E+001	  4.05648E-004
  7.85920E+001	  4.32331E-004
  8.51456E+001	 -6.04226E-004
  9.16992E+001	  3.15122E-004
  9.82528E+001	 -3.78013E-006
  1.04806E+002	 -3.49007E-004
  1.17914E+002	  4.14722E-005
  1.31021E+002	 -1.65932E-004
  1.44128E+002	 -2.46118E-004
  1.57235E+002	 -2.31398E-004
  1.70342E+002	  3.73287E-004
  1.83450E+002	  1.61028E-004
  1.96557E+002	  7.02683E-004
  2.09664E+002	  1.32540E-004
  2.35878E+002	  2.29867E-004
  2.62093E+002	  2.34673E-004
  2.88307E+002	 -7.07640E-005
  3.14522E+002	  1.54741E-004
  3.40736E+002	  1.79071E-004
  3.66950E+002	  3.09449E-005
  3.93165E+002	  7.75940E-006
  4.19379E+002	  2.51800E-005
  4.71808E+002	  1.09451E-004
  5.24237E+002	  1.68881E-004
  5.76666E+002	  1.59102E-004
  6.29094E+002	  1.72892E-004
  6.81523E+002	  1.18522E-004
  7.33952E+002	  2.22740E-004
  7.86381E+002	  1.09331E-004
  8.38810E+002	  2.11909E-006
  9.43667E+002	 -2.22048E-004
  1.04852E+003	  1.34603E-005
  1.15338E+003	  2.05746E-005
  1.25824E+003	  5.34873E-005
  1.36310E+003	  1.49309E-004
  1.46796E+003	 -2.04614E-004
  1.57281E+003	  1.27760E-004
  1.67767E+003	  3.43650E-005
  1.88739E+003	 -5.56208E-006
  2.09710E+003	 -1.98679E-005
  2.30682E+003	  8.60834E-005
  2.51653E+003	 -9.23391E-005
  2.72625E+003	 -1.73051E-004
  2.93596E+003	  4.55126E-005
  3.14568E+003	 -5.12450E-005
  3.35539E+003	  7.33362E-005
  3.77482E+003	  6.20528E-005
  4.19425E+003	  1.99012E-006
  4.61368E+003	 -5.28828E-005
  5.03311E+003	 -1.15247E-005
  5.45254E+003	  7.71500E-005
  5.87197E+003	 -1.00121E-004
  6.29140E+003	 -7.81724E-005

"Count Rate"
       0.11719	      41.64902
       0.23438	      44.50018
       0.35156	      43.84288
       0.46875	      42.99777
       0.58594	      42.12706
       0.70313	      42.37462
       0.82031	      42.90387
       0.93750	      42.51974
       1.05469	      42.34047
       1.17188	      40.80392
       1.28906	      42.88680
       1.40625	      44.29530
       1.52344	      43.30508
       1.64063	      43.40752
       1.75781	      45.02090
       1.87500	      43.80873
       1.99219	      44.81602
       2.10938	      44.61969
       2.22656	      42.16121
       2.34375	      41.46976
       2.46094	      43.31362
       2.57813	      42.86973
       2.69531	      42.61364
       2.81250	      38.82348
       2.92969	      42.03316
       3.04688	      41.83683
       3.16406	      43.02338
       3.28125	      42.36608
       3.39844	      40.58198
       3.51563	      41.82829
       3.63281	      40.83807
       3.75000	      46.05380
       3.86719	      44.99529
       3.98438	      42.55388
       4.10156	      44.65383
       4.21875	      42.41730
       4.33594	      40.46247
       4.45313	      41.92219
       4.57031	      43.21972
       4.68750	      41.67463
       4.80469	      43.82580
       4.92188	      41.76853
       5.03906	      37.85033
       5.15625	      39.24176
       5.27344	      41.56366
       5.39063	      41.51244
       5.50781	      42.35754
       5.62500	      41.56366
       5.74219	      41.08562
       5.85938	      40.85514
       5.97656	      40.62466
       6.09375	      42.34047
       6.21094	      41.43562
       6.32813	      41.57220
       6.44531	      42.07584
       6.56250	      43.63800
       6.67969	      42.22950
       6.79688	      41.21367
       6.91406	      40.44539
       7.03125	      43.97092
       7.14844	      40.88075
       7.26563	      42.56242
       7.38281	      43.46727
       7.50000	      41.92219
       7.61719	      41.54659
       7.73438	      42.78436
       7.85156	      39.98443
       7.96875	      42.15267
       8.08594	      41.76000
       8.20313	      41.46122
       8.32031	      40.91489
       8.43750	      42.94656
       8.55469	      38.32837
       8.67188	      41.21367
       8.78906	      42.06731
       8.90625	      43.47581
       9.02344	      40.46247
       9.14063	      39.67712
       9.25781	      39.49786
       9.37500	      42.34901
       9.49219	      42.34047
       9.60938	      42.65632
       9.72656	      42.09291
       9.84375	      39.39542
       9.96094	      41.80268
      10.07813	      42.08438
      10.19531	      40.26613
      10.31250	      40.13808
      10.42969	      42.86973
      10.54688	      40.93197
      10.66406	      40.44539
      10.78125	      44.20140
      10.89844	      43.68922
      11.01563	      44.68798
      11.13281	      42.11853
      11.25000	      43.74044
      11.36719	      41.52951
      11.48438	      44.40628
      11.60156	      41.66610
      11.71875	      39.93321
      11.83594	      44.79041
      11.95313	      41.96487
      12.07031	      42.79290
      12.18750	      42.19535
      12.30469	      43.50142
      12.42188	      41.35879
      12.53906	      43.06606
      12.65625	      42.05024
      12.77344	      41.14538
      12.89063	      41.03440
      13.00781	      43.31362
      13.12500	      41.57220
      13.24219	      37.90155
      13.35938	      45.25991
      13.47656	      39.77956
      13.59375	      42.11853
      13.71094	      40.77831
      13.82813	      44.51725
      13.94531	      40.83807
      14.06250	      43.32215
      14.17969	      39.02835
      14.29688	      42.10145
      14.41406	      45.49894
      14.53125	      42.09291
      14.64844	      44.74773
      14.76563	      40.90636
      14.88281	      41.87097
      15.00000	      42.99777
      15.11719	      45.30260
      15.23438	      42.59656
      15.35156	      41.86243
      15.46875	      40.67588
      15.58594	      43.85141
      15.70313	      43.50996
      15.82031	      39.56615
      15.93750	      46.44647
      16.05469	      36.87719
      16.17188	      40.97465
      16.28906	      44.07336
      16.40625	      40.55637
      16.52344	      41.89658
      16.64063	      41.26489
      16.75781	      42.37462
      16.87500	      40.38564
      16.99219	      41.19659
      17.10938	      38.41373
      17.22656	      41.49537
      17.34375	      44.00507
      17.46094	      42.15267
      17.57813	      45.00382
      17.69531	      39.61736
      17.81250	      46.92451
      17.92969	      41.37586
      18.04688	      39.98443
      18.16406	      43.23679
      18.28125	      37.81619
      18.39844	      38.86616
      18.51563	      40.12101
      18.63281	      44.01360
      18.75000	      40.75270
      18.86719	      41.74292
      18.98438	      41.33318
      19.10156	      41.30757
      19.21875	      44.69651
      19.33594	      40.77831
      19.45313	      41.93926
      19.57031	      39.62590
      19.68750	      43.07460
      19.80469	      43.49288
      19.92188	      40.01004
      20.03906	      42.16974
      20.15625	      40.20638
      20.27344	      41.08562
      20.39063	      42.21243
      20.50781	      40.60759
      20.62500	      43.77459
      20.74219	      41.97341
      20.85938	      41.43562
      20.97656	      42.03316
      21.09375	      42.27218
      21.21094	      44.51725
      21.32813	      42.51120
      21.44531	      40.88075
      21.56250	      44.26116
      21.67969	      42.31486
      21.79688	      45.60137
      21.91406	      40.95758
      22.03125	      39.00275
      22.14844	      42.05024
      22.26563	      41.36732
      22.38281	      42.93802
      22.50000	      40.59051
      22.61719	      42.84412
      22.73438	      40.70148
      22.85156	      41.14538
      22.96875	      44.02214
      23.08594	      45.08065
      23.20313	      40.21491
      23.32031	      41.02587
      23.43750	      42.15267
      23.55469	      37.85033
      23.67188	      39.16494
      23.78906	      40.04419
      23.90625	      38.54178
      24.02344	      40.24052
      24.14063	      38.34544
      24.25781	      42.89534
      24.37500	      43.45020
      24.49219	      42.95509
      24.60938	      37.76497
      24.72656	      39.71127
      24.84375	      40.83807
      24.96094	      44.08189
      25.07813	      42.90387
      25.19531	      41.75146
      25.31250	      40.61612
      25.42969	      43.02338
      25.54688	      41.23928
      25.66406	      41.07709
      25.78125	      39.67712
      25.89844	      40.86368
      26.01563	      44.74773
      26.13281	      40.09540
      26.25000	      44.04775
      26.36719	      43.78312
      26.48438	      42.21243
      26.60156	      40.09540
      26.71875	      45.42211
      26.83594	      41.17099
      26.95313	      40.63319
      27.07031	      40.73563
      27.18750	      40.65027
      27.30469	      42.97216
      27.42188	      42.25511
      27.53906	      40.53076
      27.65625	      40.36856
      27.77344	      42.48559
      27.89063	      44.50871
      28.00781	      39.82224
      28.12500	      40.71002
      28.24219	      42.53681
      28.35938	      44.01360
      28.47656	      42.45998
      28.59375	      40.85514
      28.71094	      39.90760
      28.82813	      40.22345
      28.94531	      41.43562
      29.06250	      40.59905
      29.17969	      41.38440
      29.29688	      39.33566
      29.41406	      41.86243
      29.53125	      39.68566
      29.64844	      42.98070
      29.76563	      40.88075
      29.88281	      42.63924
