ALV-5000/E-WIN Data
Date :	"11.09.17"
Time :	"14:11:34"
Samplename : 	""
Temperature [K] :	     298.16000
Viscosity [cp]  :	       0.89454
Refractive Index:	       1.33000
Wavelength [nm] :	     532.00000
Angle [°]       :	      80.00000
Duration [s]    :	        30
Runs            :	         1
Mode            :	"SINGLE AUTO CH0"
MeanCR0 [kHz]   :	      83.88427
MeanCR1 [kHz]   :	       0.00000

"Correlation"
  2.00000E-004	  4.85663E-001
  4.00000E-004	  4.73707E-001
  6.00000E-004	  4.80847E-001
  8.00000E-004	  4.88616E-001
  1.00000E-003	  4.53450E-001
  1.20000E-003	  4.51103E-001
  1.40000E-003	  4.70513E-001
  1.60000E-003	  4.73005E-001
  1.80000E-003	  4.55386E-001
  2.00000E-003	  4.57177E-001
  2.20000E-003	  4.69520E-001
  2.40000E-003	  4.53184E-001
  2.60000E-003	  4.43697E-001
  2.80000E-003	  4.69206E-001
  3.00000E-003	  4.70222E-001
  3.20000E-003	  4.43927E-001
  3.60000E-003	  4.60106E-001
  4.00000E-003	  4.45984E-001
  4.40000E-003	  4.58629E-001
  4.80000E-003	  4.46081E-001
  5.20000E-003	  4.52506E-001
  5.60000E-003	  4.42366E-001
  6.00000E-003	  4.45633E-001
  6.40000E-003	  4.45238E-001
  7.20000E-003	  4.40101E-001
  8.00000E-003	  4.40585E-001
  8.80000E-003	  4.34135E-001
  9.60000E-003	  4.28520E-001
  1.04000E-002	  4.35388E-001
  1.12000E-002	  4.32943E-001
  1.20000E-002	  4.27207E-001
  1.28000E-002	  4.29457E-001
  1.44000E-002	  4.22399E-001
  1.60000E-002	  4.20893E-001
  1.76000E-002	  4.11500E-001
  1.92000E-002	  4.05737E-001
  2.08000E-002	  4.02624E-001
  2.24000E-002	  3.98754E-001
  2.40000E-002	  3.92880E-001
  2.56000E-002	  3.89791E-001
  2.88000E-002	  3.81905E-001
  3.20000E-002	  3.72426E-001
  3.52000E-002	  3.67648E-001
  3.84000E-002	  3.60478E-001
  4.16000E-002	  3.51487E-001
  4.48000E-002	  3.44559E-001
  4.80000E-002	  3.36715E-001
  5.12000E-002	  3.30725E-001
  5.76000E-002	  3.17609E-001
  6.40000E-002	  3.02316E-001
  7.04000E-002	  2.90681E-001
  7.68000E-002	  2.78662E-001
  8.32000E-002	  2.68541E-001
  8.96000E-002	  2.56123E-001
  9.60000E-002	  2.46587E-001
  1.02400E-001	  2.35322E-001
  1.15200E-001	  2.16586E-001
  1.28000E-001	  1.99110E-001
  1.40800E-001	  1.83120E-001
  1.53600E-001	  1.68782E-001
  1.66400E-001	  1.55604E-001
  1.79200E-001	  1.43392E-001
  1.92000E-001	  1.31439E-001
  2.04800E-001	  1.21071E-001
  2.30400E-001	  1.02492E-001
  2.56000E-001	  8.65619E-002
  2.81600E-001	  7.38477E-002
  3.07200E-001	  6.28147E-002
  3.32800E-001	  5.25710E-002
  3.58400E-001	  4.40962E-002
  3.84000E-001	  3.69128E-002
  4.09600E-001	  3.14197E-002
  4.60800E-001	  2.21206E-002
  5.12000E-001	  1.59564E-002
  5.63200E-001	  1.24159E-002
  6.14400E-001	  8.52543E-003
  6.65600E-001	  6.14432E-003
  7.16800E-001	  3.95291E-003
  7.68000E-001	  2.22668E-003
  8.19200E-001	  1.28941E-003
  9.21600E-001	  2.02143E-003
  1.02400E+000	  3.12480E-003
  1.12640E+000	  2.96534E-003
  1.22880E+000	  7.83126E-004
  1.33120E+000	 -6.51955E-004
  1.43360E+000	 -9.20538E-004
  1.53600E+000	  3.78215E-004
  1.63840E+000	  1.03387E-003
  1.84320E+000	  1.23041E-003
  2.04800E+000	 -6.19558E-004
  2.25280E+000	 -2.22135E-004
  2.45760E+000	  2.67128E-004
  2.66240E+000	  9.20818E-004
  2.86720E+000	  1.05337E-003
  3.07200E+000	  1.31219E-003
  3.22560E+000	  1.93504E-003
  3.63520E+000	  9.38340E-004
  4.04480E+000	  1.13087E-003
  4.45440E+000	  1.53334E-003
  4.86400E+000	  1.28490E-003
  5.27360E+000	  1.36174E-003
  5.68320E+000	  1.00517E-003
  6.09280E+000	  5.73876E-004
  6.50240E+000	 -1.90113E-005
  7.32160E+000	  1.12986E-003
  8.14080E+000	 -5.50348E-004
  8.96000E+000	  3.70919E-004
  9.77920E+000	 -7.05913E-005
  1.05984E+001	 -6.13909E-004
  1.14176E+001	  3.77241E-004
  1.22368E+001	 -4.04569E-004
  1.30560E+001	 -2.70413E-004
  1.46944E+001	 -9.29004E-005
  1.63328E+001	  4.52799E-004
  1.79712E+001	 -4.10519E-004
  1.96096E+001	  1.07023E-004
  2.12480E+001	  1.64874E-004
  2.28864E+001	  4.59365E-004
  2.45248E+001	 -4.18764E-004
  2.61632E+001	  5.52083E-004
  2.94400E+001	  1.22122E-004
  3.27168E+001	 -7.64277E-005
  3.59936E+001	 -2.51373E-004
  3.92704E+001	  3.07440E-004
  4.25472E+001	  3.16584E-004
  4.58240E+001	  4.22068E-005
  4.91008E+001	  5.38373E-004
  5.23776E+001	  1.63731E-004
  5.89312E+001	 -2.64866E-004
  6.54848E+001	 -6.17170E-005
  7.20384E+001	 -3.22480E-004
  7.85920E+001	  2.17368E-004
  8.51456E+001	  5.18008E-004
  9.16992E+001	 -1.05769E-004
  9.82528E+001	 -3.82768E-004
  1.04806E+002	 -1.60688E-004
  1.17914E+002	 -8.20730E-005
  1.31021E+002	 -3.07335E-004
  1.44128E+002	 -3.48165E-004
  1.57235E+002	 -1.76808E-004
  1.70342E+002	 -5.49088E-004
  1.83450E+002	 -2.64538E-004
  1.96557E+002	 -4.03335E-005
  2.09664E+002	  1.75810E-004
  2.35878E+002	 -3.98920E-005
  2.62093E+002	 -2.39938E-004
  2.88307E+002	 -3.22479E-004
  3.14522E+002	 -2.61526E-006
  3.40736E+002	 -6.45510E-005
  3.66950E+002	 -1.35918E-004
  3.93165E+002	 -1.18754E-004
  4.19379E+002	  1.27712E-004
  4.71808E+002	  7.29407E-005
  5.24237E+002	 -2.14230E-004
  5.76666E+002	  1.81007E-005
  6.29094E+002	 -2.20531E-005
  6.81523E+002	 -7.36279E-005
  7.33952E+002	  5.08130E-006
  7.86381E+002	  1.60285E-004
  8.38810E+002	 -1.17896E-004
  9.43667E+002	 -1.01957E-004
  1.04852E+003	 -9.07793E-006
  1.15338E+003	  1.38602E-004
  1.25824E+003	  4.56442E-005
  1.36310E+003	  1.49998E-005
  1.46796E+003	 -7.57560E-005
  1.57281E+003	  2.48909E-004
  1.67767E+003	  2.67166E-006
  1.88739E+003	 -1.18185E-004
  2.09710E+003	  3.32611E-005
  2.30682E+003	 -8.24910E-005
  2.51653E+003	  2.01706E-006
  2.72625E+003	  1.30454E-004
  2.93596E+003	  8.87658E-007
  3.14568E+003	 -2.21329E-005
  3.35539E+003	 -9.42289E-005
  3.77482E+003	 -3.62746E-005
  4.19425E+003	  8.07135E-005
  4.61368E+003	 -2.46109E-005
  5.03311E+003	 -1.97396E-005
  5.45254E+003	  2.28670E-005
  5.87197E+003	 -3.33611E-005
  6.29140E+003	 -4.18830E-005

"Count Rate"
       0.11719	      83.11878
       0.23438	      83.42609
       0.35156	      85.22727
       0.46875	      90.22105
       0.58594	      84.28827
       0.70313	      85.39800
       0.82031	      85.48336
       0.93750	      86.29432
       1.05469	      90.61373
       1.17188	      80.32738
       1.28906	      81.12981
       1.40625	      84.71509
       1.52344	      84.31388
       1.64063	      85.76506
       1.75781	      79.93472
       1.87500	      86.25164
       1.99219	      83.29805
       2.10938	      87.81380
       2.22656	      74.65923
       2.34375	      86.72968
       2.46094	      82.71758
       2.57813	      84.03218
       2.69531	      84.32242
       2.81250	      80.84811
       2.92969	      77.38233
       3.04688	      85.79067
       3.16406	      86.49065
       3.28125	      84.95411
       3.39844	      84.88582
       3.51563	      83.75901
       3.63281	      85.96994
       3.75000	      78.46645
       3.86719	      83.80170
       3.98438	      87.36990
       4.10156	      83.94682
       4.21875	      80.66031
       4.33594	      80.67738
       4.45313	      87.19917
       4.57031	      84.05779
       4.68750	      90.46008
       4.80469	      80.50665
       4.92188	      84.15169
       5.03906	      81.77857
       5.15625	      88.64182
       5.27344	      89.09425
       5.39063	      83.87852
       5.50781	      86.11506
       5.62500	      84.52729
       5.74219	      82.58953
       5.85938	      76.22992
       5.97656	      89.13693
       6.09375	      80.69445
       6.21094	      85.48336
       6.32813	      82.35905
       6.44531	      83.02489
       6.56250	      85.03947
       6.67969	      81.62492
       6.79688	      83.90413
       6.91406	      82.81148
       7.03125	      79.47375
       7.14844	      79.03839
       7.26563	      82.15417
       7.38281	      84.55289
       7.50000	      80.48104
       7.61719	      92.56857
       7.73438	      86.22603
       7.85156	      87.66868
       7.96875	      80.19080
       8.08594	      85.67970
       8.20313	      88.01013
       8.32031	      78.04817
       8.43750	      86.59309
       8.55469	      80.55787
       8.67188	      82.60660
       8.78906	      89.35888
       8.90625	      81.61638
       9.02344	      87.13088
       9.14063	      81.91515
       9.25781	      82.29929
       9.37500	      87.01991
       9.49219	      84.40778
       9.60938	      83.97242
       9.72656	      79.94325
       9.84375	      87.99306
       9.96094	      82.05173
      10.07813	      85.25288
      10.19531	      84.97118
      10.31250	      84.33949
      10.42969	      79.90910
      10.54688	      89.47839
      10.66406	      85.21020
      10.78125	      84.44193
      10.89844	      81.65907
      11.01563	      83.52853
      11.13281	      79.23473
      11.25000	      84.33949
      11.36719	      86.05530
      11.48438	      87.27600
      11.60156	      76.28114
      11.71875	      85.89311
      11.83594	      84.53583
      11.95313	      80.79689
      12.07031	      84.42485
      12.18750	      90.56252
      12.30469	      80.04568
      12.42188	      83.57121
      12.53906	      86.98576
      12.65625	      82.96513
      12.77344	      76.36650
      12.89063	      82.52978
      13.00781	      92.92709
      13.12500	      79.67862
      13.24219	      85.30410
      13.35938	      89.81131
      13.47656	      82.66636
      13.59375	      86.75529
      13.71094	      86.11506
      13.82813	      80.86518
      13.94531	      76.78479
      14.06250	      84.97118
      14.17969	      82.51270
      14.29688	      84.41631
      14.41406	      90.48569
      14.53125	      85.84189
      14.64844	      80.62616
      14.76563	      83.39195
      14.88281	      87.89916
      15.00000	      85.01386
      15.11719	      81.31760
      15.23438	      81.79565
      15.35156	      83.01635
      15.46875	      77.45062
      15.58594	      89.98204
      15.70313	      79.39692
      15.82031	      80.02861
      15.93750	      88.32598
      16.05469	      88.82963
      16.17188	      83.07610
      16.28906	      84.39924
      16.40625	      85.86750
      16.52344	      86.76382
      16.64063	      81.21517
      16.75781	      81.70174
      16.87500	      81.97491
      16.99219	      91.32225
      17.10938	      79.39692
      17.22656	      90.18691
      17.34375	      83.04195
      17.46094	      83.62243
      17.57813	      78.48353
      17.69531	      85.25288
      17.81250	      84.21998
      17.92969	      84.56143
      18.04688	      78.38963
      18.16406	      82.88831
      18.28125	      80.05422
      18.39844	      86.61871
      18.51563	      86.16628
      18.63281	      84.58704
      18.75000	      83.05049
      18.86719	      85.34678
      18.98438	      83.73341
      19.10156	      81.66760
      19.21875	      81.82979
      19.33594	      82.15417
      19.45313	      79.14083
      19.57031	      87.32722
      19.68750	      81.07859
      19.80469	      86.43944
      19.92188	      90.92104
      20.03906	      88.30891
      20.15625	      81.68467
      20.27344	      78.79937
      20.39063	      82.39319
      20.50781	      87.52356
      20.62500	      83.03342
      20.74219	      80.84811
      20.85938	      86.04677
      20.97656	      81.88101
      21.09375	      82.29076
      21.21094	      85.00533
      21.32813	      83.38342
      21.44531	      87.55770
      21.56250	      85.05654
      21.67969	      89.46986
      21.79688	      78.07378
      21.91406	      84.48460
      22.03125	      84.27973
      22.14844	      86.58456
      22.26563	      89.33327
      22.38281	      83.78462
      22.50000	      86.18335
      22.61719	      89.33327
      22.73438	      90.17838
      22.85156	      81.99198
      22.96875	      80.27617
      23.08594	      85.25288
      23.20313	      78.46645
      23.32031	      86.96016
      23.43750	      84.58704
      23.55469	      83.98096
      23.67188	      77.98842
      23.78906	      84.80899
      23.90625	      84.42485
      24.02344	      84.10047
      24.14063	      88.14671
      24.25781	      86.19189
      24.37500	      80.13105
      24.49219	      90.54544
      24.60938	      82.38466
      24.72656	      82.12856
      24.84375	      81.68467
      24.96094	      77.47623
      25.07813	      88.15525
      25.19531	      80.11398
      25.31250	      84.52729
      25.42969	      82.32490
      25.54688	      82.60660
      25.66406	      83.63097
      25.78125	      84.72363
      25.89844	      82.06881
      26.01563	      79.89203
      26.13281	      81.60784
      26.25000	      83.27244
      26.36719	      82.41026
      26.48438	      84.47607
      26.60156	      85.73092
      26.71875	      85.67117
      26.83594	      82.38466
      26.95313	      84.33095
      27.07031	      83.71633
      27.18750	      80.95055
      27.30469	      79.90057
      27.42188	      82.25661
      27.53906	      86.77235
      27.65625	      85.85043
      27.77344	      85.83335
      27.89063	      81.98344
      28.00781	      87.36137
      28.12500	      81.31760
      28.24219	      85.62848
      28.35938	      81.66760
      28.47656	      83.93828
      28.59375	      82.29076
      28.71094	      79.75545
      28.82813	      86.05530
      28.94531	      82.21393
      29.06250	      80.56641
      29.17969	      82.17125
      29.29688	      86.67846
      29.41406	      85.60287
      29.53125	      84.56143
      29.64844	      85.78214
      29.76563	      89.34181
      29.88281	      83.56268
