ALV-5000/E-WIN Data
Date :	"15.03.18"
Time :	"11:57:46"
Samplename : 	""
Temperature [K] :	     298.16000
Viscosity [cp]  :	       0.89454
Refractive Index:	       1.33000
Wavelength [nm] :	     532.00000
Angle [°]       :	      60.00000
Duration [s]    :	        30
Runs            :	         1
Mode            :	"SINGLE AUTO CH0 "
MeanCR0 [kHz]   :	      54.35177
MeanCR1 [kHz]   :	       0.00000

"Correlation"
  2.00000E-004	  5.12281E-001
  4.00000E-004	  4.95794E-001
  6.00000E-004	  4.89395E-001
  8.00000E-004	  4.72274E-001
  1.00000E-003	  4.83457E-001
  1.20000E-003	  4.73715E-001
  1.40000E-003	  4.78327E-001
  1.60000E-003	  4.75560E-001
  1.80000E-003	  4.90721E-001
  2.00000E-003	  4.77404E-001
  2.20000E-003	  4.69852E-001
  2.40000E-003	  4.63338E-001
  2.60000E-003	  4.87377E-001
  2.80000E-003	  4.67028E-001
  3.00000E-003	  4.67892E-001
  3.20000E-003	  4.74294E-001
  3.60000E-003	  4.65849E-001
  4.00000E-003	  4.56423E-001
  4.40000E-003	  4.68587E-001
  4.80000E-003	  4.62303E-001
  5.20000E-003	  4.62073E-001
  5.60000E-003	  4.55530E-001
  6.00000E-003	  4.56827E-001
  6.40000E-003	  4.56318E-001
  7.20000E-003	  4.62731E-001
  8.00000E-003	  4.55885E-001
  8.80000E-003	  4.45350E-001
  9.60000E-003	  4.41891E-001
  1.04000E-002	  4.33475E-001
  1.12000E-002	  4.42136E-001
  1.20000E-002	  4.45134E-001
  1.28000E-002	  4.34607E-001
  1.44000E-002	  4.32466E-001
  1.60000E-002	  4.25793E-001
  1.76000E-002	  4.17924E-001
  1.92000E-002	  4.13060E-001
  2.08000E-002	  4.02445E-001
  2.24000E-002	  3.99498E-001
  2.40000E-002	  3.96284E-001
  2.56000E-002	  3.89718E-001
  2.88000E-002	  3.75792E-001
  3.20000E-002	  3.70186E-001
  3.52000E-002	  3.64097E-001
  3.84000E-002	  3.49065E-001
  4.16000E-002	  3.44114E-001
  4.48000E-002	  3.31752E-001
  4.80000E-002	  3.20662E-001
  5.12000E-002	  3.13569E-001
  5.76000E-002	  2.92942E-001
  6.40000E-002	  2.80317E-001
  7.04000E-002	  2.67863E-001
  7.68000E-002	  2.53872E-001
  8.32000E-002	  2.39260E-001
  8.96000E-002	  2.25165E-001
  9.60000E-002	  2.13728E-001
  1.02400E-001	  2.04147E-001
  1.15200E-001	  1.86455E-001
  1.28000E-001	  1.68442E-001
  1.40800E-001	  1.48566E-001
  1.53600E-001	  1.34454E-001
  1.66400E-001	  1.21140E-001
  1.79200E-001	  1.11014E-001
  1.92000E-001	  9.86218E-002
  2.04800E-001	  8.92232E-002
  2.30400E-001	  7.26445E-002
  2.56000E-001	  5.88574E-002
  2.81600E-001	  4.70024E-002
  3.07200E-001	  3.90401E-002
  3.32800E-001	  3.22195E-002
  3.58400E-001	  2.75347E-002
  3.84000E-001	  2.16220E-002
  4.09600E-001	  1.74812E-002
  4.60800E-001	  1.21451E-002
  5.12000E-001	  8.96545E-003
  5.63200E-001	  7.81990E-003
  6.14400E-001	  5.23901E-003
  6.65600E-001	  4.08602E-003
  7.16800E-001	  3.53276E-003
  7.68000E-001	  2.46850E-003
  8.19200E-001	  2.37760E-003
  9.21600E-001	  2.05599E-003
  1.02400E+000	  8.87179E-004
  1.12640E+000	  6.05308E-004
  1.22880E+000	  4.18264E-004
  1.33120E+000	 -1.26490E-003
  1.43360E+000	  1.11607E-003
  1.53600E+000	  2.03414E-003
  1.63840E+000	  6.45773E-004
  1.84320E+000	 -8.73795E-005
  2.04800E+000	  2.70423E-004
  2.25280E+000	  1.30773E-003
  2.45760E+000	  4.39862E-004
  2.66240E+000	 -8.82455E-004
  2.86720E+000	 -6.15625E-004
  3.07200E+000	 -1.09833E-003
  3.22560E+000	 -1.37735E-003
  3.63520E+000	 -3.11032E-004
  4.04480E+000	 -2.18941E-004
  4.45440E+000	  5.99103E-004
  4.86400E+000	 -9.48286E-005
  5.27360E+000	  1.07251E-003
  5.68320E+000	  3.82554E-004
  6.09280E+000	  4.58605E-004
  6.50240E+000	 -1.64695E-003
  7.32160E+000	 -1.04342E-003
  8.14080E+000	  7.34007E-004
  8.96000E+000	 -1.10104E-003
  9.77920E+000	 -5.60371E-004
  1.05984E+001	 -6.12644E-004
  1.14176E+001	 -7.08959E-004
  1.22368E+001	  5.47612E-004
  1.30560E+001	  6.64132E-004
  1.46944E+001	 -3.59900E-004
  1.63328E+001	  4.81434E-004
  1.79712E+001	 -6.82202E-004
  1.96096E+001	 -2.96498E-004
  2.12480E+001	 -4.27961E-004
  2.28864E+001	 -2.90891E-006
  2.45248E+001	  4.32150E-004
  2.61632E+001	 -8.94112E-005
  2.94400E+001	  4.71024E-004
  3.27168E+001	  1.00418E-004
  3.59936E+001	  2.67088E-004
  3.92704E+001	  4.98436E-004
  4.25472E+001	 -4.31151E-004
  4.58240E+001	 -2.25541E-005
  4.91008E+001	 -2.82138E-004
  5.23776E+001	 -2.01850E-004
  5.89312E+001	  3.04958E-004
  6.54848E+001	  9.95225E-005
  7.20384E+001	 -8.55450E-005
  7.85920E+001	 -6.54125E-005
  8.51456E+001	 -2.63562E-004
  9.16992E+001	 -9.12816E-005
  9.82528E+001	 -4.33226E-004
  1.04806E+002	 -1.81239E-004
  1.17914E+002	  2.50932E-004
  1.31021E+002	 -2.07972E-004
  1.44128E+002	  1.69261E-004
  1.57235E+002	 -2.62792E-004
  1.70342E+002	 -8.15925E-005
  1.83450E+002	  4.67813E-005
  1.96557E+002	  9.57940E-006
  2.09664E+002	  9.23977E-005
  2.35878E+002	 -1.73336E-004
  2.62093E+002	  1.36512E-004
  2.88307E+002	  2.29543E-005
  3.14522E+002	 -2.56935E-004
  3.40736E+002	  2.29930E-005
  3.66950E+002	  2.32867E-005
  3.93165E+002	 -1.64185E-004
  4.19379E+002	 -7.83286E-005
  4.71808E+002	  6.51504E-005
  5.24237E+002	 -7.02451E-005
  5.76666E+002	 -1.03036E-004
  6.29094E+002	 -8.90334E-006
  6.81523E+002	 -3.21179E-005
  7.33952E+002	  3.57924E-005
  7.86381E+002	 -1.50597E-004
  8.38810E+002	  7.28848E-005
  9.43667E+002	  8.41306E-005
  1.04852E+003	  6.08835E-005
  1.15338E+003	 -5.16474E-005
  1.25824E+003	 -1.30342E-004
  1.36310E+003	  4.37922E-005
  1.46796E+003	 -8.25394E-005
  1.57281E+003	 -5.89689E-005
  1.67767E+003	 -3.88449E-005
  1.88739E+003	 -7.59197E-005
  2.09710E+003	  6.66887E-005
  2.30682E+003	  7.20017E-005
  2.51653E+003	  2.28008E-005
  2.72625E+003	 -2.53837E-005
  2.93596E+003	  1.95468E-005
  3.14568E+003	  5.44573E-005
  3.35539E+003	 -6.91326E-005
  3.77482E+003	  5.05245E-005
  4.19425E+003	 -1.73139E-005
  4.61368E+003	  1.25675E-005
  5.03311E+003	 -1.74322E-005
  5.45254E+003	 -1.17524E-005
  5.87197E+003	 -1.42357E-005
  6.29140E+003	 -3.72752E-005

"Count Rate"
       0.11719	      51.60245
       0.23438	      56.11820
       0.35156	      52.43901
       0.46875	      53.52314
       0.58594	      54.47068
       0.70313	      55.94747
       0.82031	      53.46338
       0.93750	      53.74508
       1.05469	      57.72304
       1.17188	      58.53399
       1.28906	      53.20729
       1.40625	      53.40363
       1.52344	      56.62185
       1.64063	      55.48650
       1.75781	      53.74508
       1.87500	      54.64140
       1.99219	      60.09615
       2.10938	      58.17546
       2.22656	      54.67555
       2.34375	      53.14754
       2.46094	      51.94390
       2.57813	      53.20729
       2.69531	      53.77069
       2.81250	      54.06947
       2.92969	      55.09383
       3.04688	      55.52919
       3.16406	      52.74633
       3.28125	      53.76215
       3.39844	      56.98037
       3.51563	      52.14024
       3.63281	      52.60974
       3.75000	      54.41946
       3.86719	      55.13651
       3.98438	      56.12674
       4.10156	      55.93040
       4.21875	      60.11322
       4.33594	      55.76820
       4.45313	      55.11944
       4.57031	      54.00117
       4.68750	      53.66825
       4.80469	      54.92310
       4.92188	      57.08281
       5.03906	      53.81337
       5.15625	      54.47921
       5.27344	      52.64389
       5.39063	      55.34992
       5.50781	      50.80003
       5.62500	      53.31826
       5.74219	      49.99761
       5.85938	      53.14754
       5.97656	      57.44134
       6.09375	      53.46338
       6.21094	      53.16461
       6.32813	      54.00117
       6.44531	      51.55977
       6.56250	      54.92310
       6.67969	      52.33658
       6.79688	      54.46214
       6.91406	      55.20480
       7.03125	      55.83650
       7.14844	      53.22436
       7.26563	      54.05239
       7.38281	      51.22685
       7.50000	      55.36700
       7.61719	      52.07195
       7.73438	      54.76091
       7.85156	      53.77923
       7.96875	      52.02927
       8.08594	      52.54999
       8.20313	      55.99869
       8.32031	      53.46338
       8.43750	      54.11215
       8.55469	      56.45965
       8.67188	      54.40239
       8.78906	      57.91084
       8.90625	      51.79025
       9.02344	      51.47440
       9.14063	      55.44382
       9.25781	      56.04137
       9.37500	      52.19146
       9.49219	      54.53897
       9.60938	      53.52314
       9.72656	      57.77426
       9.84375	      55.04261
       9.96094	      53.11339
      10.07813	      54.98286
      10.19531	      50.15126
      10.31250	      55.11090
      10.42969	      53.21583
      10.54688	      54.42799
      10.66406	      53.01949
      10.78125	      53.24997
      10.89844	      58.90960
      11.01563	      53.04510
      11.13281	      58.25229
      11.25000	      54.37677
      11.36719	      54.41946
      11.48438	      52.15731
      11.60156	      52.45609
      11.71875	      56.89501
      11.83594	      55.64016
      11.95313	      52.69511
      12.07031	      53.56582
      12.18750	      55.58894
      12.30469	      53.98410
      12.42188	      55.81942
      12.53906	      52.73779
      12.65625	      56.30600
      12.77344	      53.50607
      12.89063	      55.72552
      13.00781	      52.53292
      13.12500	      55.97308
      13.24219	      52.71218
      13.35938	      55.55479
      13.47656	      52.75486
      13.59375	      54.79506
      13.71094	      52.63535
      13.82813	      54.90603
      13.94531	      51.87561
      14.06250	      57.74865
      14.17969	      53.82191
      14.29688	      51.91830
      14.41406	      55.58894
      14.53125	      54.08654
      14.64844	      55.16212
      14.76563	      52.33658
      14.88281	      58.78155
      15.00000	      52.48170
      15.11719	      54.91457
      15.23438	      54.55604
      15.35156	      56.60477
      15.46875	      55.69991
      15.58594	      51.63660
      15.70313	      54.00117
      15.82031	      55.45236
      15.93750	      56.17795
      16.05469	      57.27061
      16.17188	      52.78047
      16.28906	      58.16693
      16.40625	      53.02803
      16.52344	      53.80484
      16.64063	      56.74989
      16.75781	      52.46463
      16.87500	      54.54750
      16.99219	      57.24500
      17.10938	      52.08049
      17.22656	      50.14273
      17.34375	      54.88042
      17.46094	      55.68284
      17.57813	      54.47921
      17.69531	      54.15483
      17.81250	      54.35970
      17.92969	      52.99388
      18.04688	      55.21334
      18.16406	      52.78901
      18.28125	      55.65723
      18.39844	      53.89874
      18.51563	      56.25478
      18.63281	      52.13171
      18.75000	      49.80981
      18.86719	      53.58289
      18.98438	      52.55853
      19.10156	      57.74011
      19.21875	      59.19983
      19.33594	      55.14505
      19.45313	      54.03532
      19.57031	      53.13900
      19.68750	      52.32804
      19.80469	      54.47921
      19.92188	      53.55728
      20.03906	      53.53167
      20.15625	      55.07676
      20.27344	      54.38531
      20.39063	      54.17190
      20.50781	      52.66096
      20.62500	      56.46819
      20.74219	      54.56458
      20.85938	      53.30973
      20.97656	      53.99264
      21.09375	      53.20729
      21.21094	      55.58894
      21.32813	      52.77193
      21.44531	      56.08405
      21.56250	      52.51584
      21.67969	      54.15483
      21.79688	      54.50482
      21.91406	      54.35117
      22.03125	      53.24144
      22.14844	      54.96579
      22.26563	      52.07195
      22.38281	      53.47192
      22.50000	      51.86708
      22.61719	      56.10112
      22.73438	      57.17671
      22.85156	      57.79987
      22.96875	      52.08049
      23.08594	      53.47192
      23.20313	      53.83898
      23.32031	      56.80111
      23.43750	      51.89268
      23.55469	      53.31826
      23.67188	      52.04634
      23.78906	      53.16461
      23.90625	      50.53540
      24.02344	      56.68160
      24.14063	      52.88291
      24.25781	      54.44506
      24.37500	      55.18773
      24.49219	      54.74384
      24.60938	      56.24624
      24.72656	      53.07924
      24.84375	      54.16336
      24.96094	      55.99869
      25.07813	      55.46943
      25.19531	      55.52919
      25.31250	      55.89625
      25.42969	      55.09383
      25.54688	      53.70240
      25.66406	      55.42675
      25.78125	      53.78777
      25.89844	      56.22063
      26.01563	      54.18897
      26.13281	      52.84023
      26.25000	      55.74260
      26.36719	      53.07924
      26.48438	      54.61580
      26.60156	      54.41946
      26.71875	      54.88042
      26.83594	      54.17190
      26.95313	      52.93412
      27.07031	      51.03905
      27.18750	      54.10361
      27.30469	      52.94266
      27.42188	      54.60726
      27.53906	      54.48775
      27.65625	      52.85730
      27.77344	      57.60353
      27.89063	      52.48170
      28.00781	      54.35970
      28.12500	      54.59018
      28.24219	      55.23041
      28.35938	      56.44258
      28.47656	      54.01825
      28.59375	      55.93893
      28.71094	      51.95244
      28.82813	      53.83898
      28.94531	      57.10842
      29.06250	      53.53167
      29.17969	      52.86583
      29.29688	      56.51087
      29.41406	      54.58165
      29.53125	      56.87794
      29.64844	      52.48170
      29.76563	      53.76215
      29.88281	      53.30119
